Frequency(Hz), Magnitude(dB),  Phase(deg)
    3.016, 92.399834, 145.776535
    3.053, 92.531815, 145.776535
    3.092, 92.668030, 145.776535
    3.130, 92.815613, 145.776535
    3.170, 92.994415, 143.893463
    3.209, 93.212433, 140.956665
    3.249, 93.476929, 139.976273
    3.290, 93.743561, 138.032318
    3.331, 94.012314, 136.072006
    3.373, 94.283134, 134.095596
    3.415, 94.555962, 132.103287
    3.458, 94.830734, 130.095383
    3.502, 95.107391, 128.072159
    3.545, 95.385864, 126.033920
    3.590, 95.666084, 123.981018
    3.635, 95.947968, 121.913826
    3.680, 96.231430, 119.832718
    3.726, 96.516380, 117.738159
    3.773, 96.802719, 115.630608
    3.820, 97.090363, 113.510536
    3.868, 97.379166, 111.378479
    3.917, 97.669037, 109.235031
    3.966, 97.959839, 107.080765
    4.016, 98.251450, 104.916344
    4.066, 98.543716, 102.742462
    4.117, 98.836510, 100.559837
    4.168, 99.129646, 98.369255
    4.221, 99.422981, 96.171532
    4.274, 99.716309, 93.967567
    4.327, 100.009476, 91.758270
    4.381, 100.302269, 89.544647
    4.436, 100.594475, 87.327721
    4.492, 100.885887, 85.108597
    4.548, 101.176262, 82.888435
    4.605, 101.465363, 80.668488
    4.663, 101.752930, 78.450027
    4.721, 102.038696, 76.234459
    4.780, 102.322372, 74.023186
    4.840, 102.603668, 71.817764
    4.901, 102.882248, 69.619781
    4.962, 103.157814, 67.430931
    5.024, 103.430008, 65.252983
    5.087, 103.698456, 63.087814
    5.151, 103.962784, 60.937389
    5.216, 104.222603, 58.803783
    5.281, 104.477493, 56.689159
    5.347, 104.727013, 54.595783
    5.414, 104.970703, 52.526070
    5.482, 105.208092, 50.482529
    5.551, 105.438766, 48.466835
    5.620, 105.662750, 46.477436
    5.691, 105.880417, 44.512341
    5.762, 106.092445, 42.569412
    5.834, 106.299583, 40.646351
    5.907, 106.502594, 38.740646
    5.981, 106.702209, 36.849632
    6.056, 106.899231, 34.970413
    6.132, 107.094391, 33.099899
    6.209, 107.288361, 31.234779
    6.287, 107.481552, 29.371500
    6.366, 107.674149, 27.507231
    6.445, 107.866066, 25.642254
    6.526, 108.057213, 23.777132
    6.608, 108.247513, 21.912447
    6.691, 108.436859, 20.048807
    6.775, 108.625168, 18.186836
    6.859, 108.812340, 16.327192
    6.945, 108.998268, 14.470549
    7.032, 109.182854, 12.617605
    7.121, 109.365982, 10.769091
    7.210, 109.547531, 8.925753
    7.300, 109.727402, 7.088377
    7.392, 109.905472, 5.257768
    7.484, 110.081619, 3.434763
    7.578, 110.255699, 1.620227
    7.673, 110.427589, -0.184948
    7.769, 110.597160, -1.979830
    7.866, 110.764267, -3.763463
    7.965, 110.928757, -5.534853
    8.065, 111.090485, -7.292979
    8.166, 111.249306, -9.036774
    8.268, 111.405106, -10.765760
    8.372, 111.558487, -12.485917
    8.477, 111.710098, -14.198202
    8.583, 111.860535, -15.903611
    8.690, 112.010078, -17.603168
    8.799, 112.158928, -19.297956
    8.910, 112.307251, -20.989092
    9.021, 112.455208, -22.677736
    9.134, 112.602951, -24.365088
    9.249, 112.750465, -26.052414
    9.365, 112.897446, -27.741005
    9.482, 113.043434, -29.431593
    9.601, 113.187927, -31.118465
    9.721, 113.330833, -32.800953
    9.843, 113.472054, -34.478348
    9.966, 113.611458, -36.149933
   10.091, 113.748947, -37.814960
   10.217, 113.884422, -39.472649
   10.345, 114.017731, -41.122196
   10.475, 114.148773, -42.762772
   10.606, 114.277420, -44.393520
   10.739, 114.403534, -46.013542
   10.874, 114.526978, -47.621925
   11.010, 114.647629, -49.217720
   11.148, 114.764969, -50.798859
   11.288, 114.878647, -52.366028
   11.429, 114.988487, -53.919960
   11.572, 115.094635, -55.461422
   11.717, 115.197311, -56.991188
   11.864, 115.296753, -58.510105
   12.013, 115.393204, -60.019032
   12.163, 115.486877, -61.518867
   12.316, 115.578117, -63.010559
   12.470, 115.667351, -64.495064
   12.626, 115.754997, -65.973404
   12.785, 115.841354, -67.447731
   12.945, 115.926353, -68.917412
   13.107, 116.009918, -70.381836
   13.271, 116.091980, -71.840317
   13.437, 116.172424, -73.292183
   13.606, 116.251205, -74.736717
   13.776, 116.328209, -76.173393
   13.949, 116.403564, -77.604836
   14.124, 116.477394, -79.031380
   14.301, 116.549881, -80.453377
   14.480, 116.621162, -81.871178
   14.661, 116.691353, -83.285172
   14.845, 116.760551, -84.695747
   15.031, 116.828873, -86.103310
   15.219, 116.896431, -87.508301
   15.410, 116.963280, -88.911148
   15.603, 117.029419, -90.312325
   15.799, 117.094734, -91.712067
   15.997, 117.159081, -93.107529
   16.197, 117.222397, -94.498085
   16.400, 117.284630, -95.883118
   16.605, 117.345741, -97.261963
   16.814, 117.405716, -98.634407
   17.024, 117.464607, -100.000557
   17.238, 117.522446, -101.360466
   17.454, 117.579277, -102.714195
   17.672, 117.635124, -104.061852
   17.894, 117.690048, -105.403503
   18.118, 117.744072, -106.739250
   18.345, 117.797241, -108.069199
   18.575, 117.849571, -109.393410
   18.807, 117.901039, -110.712036
   19.043, 117.951591, -112.025200
   19.282, 118.001183, -113.332489
   19.523, 118.049881, -114.633255
   19.768, 118.097717, -115.927666
   20.016, 118.144753, -117.215897
   20.266, 118.190956, -118.498131
   20.520, 118.236313, -119.774551
   20.778, 118.280785, -121.045380
   21.038, 118.324310, -122.310791
   21.301, 118.366859, -123.571060
   21.568, 118.408363, -124.826393
   21.839, 118.448700, -126.077003
   22.112, 118.487617, -127.323753
   22.389, 118.524742, -128.568298
   22.670, 118.559807, -129.810577
   22.954, 118.592682, -131.050461
   23.242, 118.623352, -132.287888
   23.533, 118.651848, -133.522751
   23.828, 118.678207, -134.754944
   24.126, 118.702484, -135.984375
   24.429, 118.724739, -137.210968
   24.735, 118.745087, -138.434570
   25.045, 118.763878, -139.654282
   25.358, 118.781433, -140.869705
   25.676, 118.798019, -142.079681
   25.998, 118.813644, -143.284058
   26.324, 118.828354, -144.482620
   26.653, 118.842155, -145.675171
   26.987, 118.855064, -146.861542
   27.326, 118.867096, -148.041519
   27.668, 118.878242, -149.215042
   28.015, 118.888412, -150.382462
   28.366, 118.897537, -151.544067
   28.721, 118.905472, -152.700989
   29.081, 118.912216, -153.853287
   29.445, 118.917755, -155.000916
   29.814, 118.922073, -156.143845
   30.188, 118.925163, -157.282013
   30.566, 118.927010, -158.415405
   30.949, 118.927673, -159.544388
   31.337, 118.927162, -160.669357
   31.730, 118.925552, -161.790558
   32.127, 118.922844, -162.907867
   32.530, 118.919037, -164.021210
   32.937, 118.914124, -165.130493
   33.350, 118.908127, -166.236099
   33.768, 118.901016, -167.338318
   34.191, 118.892807, -168.437317
   34.619, 118.883499, -169.533386
   35.053, 118.873100, -170.626694
   35.492, 118.861603, -171.717072
   35.937, 118.848999, -172.804321
   36.387, 118.835335, -173.888351
   36.843, 118.820602, -174.969116
   37.305, 118.804855, -176.046600
   37.772, 118.788132, -177.120728
   38.246, 118.770439, -178.191040
   38.725, 118.751785, -179.256958
   39.210, 118.732193, 179.681824
   39.701, 118.711670, 178.625381
   40.199, 118.690247, 177.573700
   40.703, 118.667915, 176.526825
   41.213, 118.644684, 175.484772
   41.729, 118.620529, 174.447342
   42.252, 118.595459, 173.414322
   42.781, 118.569450, 172.385696
   43.317, 118.542488, 171.361191
   43.860, 118.514549, 170.340714
   44.410, 118.485550, 169.323715
   44.966, 118.455391, 168.309830
   45.530, 118.423988, 167.299133
   46.100, 118.391281, 166.291687
   46.678, 118.357346, 165.287567
   47.263, 118.322365, 164.287903
   47.855, 118.286583, 163.292892
   48.454, 118.250237, 162.302200
   49.062, 118.213486, 161.315582
   49.676, 118.176414, 160.332443
   50.299, 118.139084, 159.351318
   50.929, 118.101540, 158.372070
   51.567, 118.063797, 157.394501
   52.213, 118.025711, 156.418198
   52.868, 117.987061, 155.444473
   53.530, 117.947540, 154.473602
   54.201, 117.906891, 153.504532
   54.880, 117.865021, 152.537704
   55.567, 117.822006, 151.574631
   56.264, 117.778046, 150.615463
   56.969, 117.733315, 149.660110
   57.683, 117.687927, 148.709229
   58.405, 117.641861, 147.761658
   59.137, 117.595070, 146.816864
   59.878, 117.547531, 145.874496
   60.628, 117.499275, 144.932892
   61.388, 117.450333, 143.994751
   62.157, 117.400681, 143.059799
   62.936, 117.350250, 142.127762
   63.725, 117.299026, 141.197098
   64.523, 117.247086, 140.267441
   65.332, 117.194672, 139.339203
   66.150, 117.141945, 138.412750
   66.979, 117.088860, 137.489273
   67.818, 117.035225, 136.569275
   68.668, 116.980865, 135.653046
   69.529, 116.925880, 134.740402
   70.400, 116.870514, 133.827896
   71.282, 116.814926, 132.915497
   72.175, 116.759033, 132.003769
   73.079, 116.702660, 131.093155
   73.995, 116.645706, 130.184021
   74.922, 116.588257, 129.276184
   75.861, 116.530449, 128.369263
   76.812, 116.472321, 127.463036
   77.774, 116.413765, 126.557030
   78.749, 116.354607, 125.651047
   79.735, 116.294823, 124.745255
   80.734, 116.234657, 123.839981
   81.746, 116.174500, 122.935989
   82.770, 116.114540, 122.033691
   83.807, 116.054619, 121.137077
   84.858, 115.994476, 120.246017
   85.921, 115.933914, 119.355225
   86.997, 115.872765, 118.461807
   88.087, 115.810738, 117.565414
   89.191, 115.747841, 116.666008
   90.309, 115.684067, 115.763634
   91.440, 115.619431, 114.862022
   92.586, 115.553909, 113.965462
   93.746, 115.487793, 113.070473
   94.921, 115.421814, 112.171501
   96.110, 115.356590, 111.262848
   97.315, 115.292252, 110.349373
   98.534, 115.228592, 109.436775
   99.769, 115.165283, 108.526642
  101.019, 115.102112, 107.618042
  102.284, 115.038803, 106.710983
  103.566, 114.975044, 105.805824
  104.864, 114.910522, 104.899460
  106.178, 114.845436, 103.990555
  107.508, 114.779999, 103.079132
  108.855, 114.713928, 102.157272
  110.219, 114.647049, 101.227440
  111.600, 114.579437, 100.307114
  112.999, 114.511375, 99.392273
  114.414, 114.443420, 98.463783
  115.848, 114.376183, 97.525589
  117.300, 114.309509, 96.588158
  118.769, 114.242645, 95.649773
  120.258, 114.174744, 94.707779
  121.764, 114.105743, 93.761604
  123.290, 114.036186, 92.821716
  124.835, 113.966362, 91.889946
  126.399, 113.895767, 90.957626
  127.983, 113.823914, 90.024399
  129.587, 113.750824, 89.095306
  131.210, 113.677795, 88.178581
  132.854, 113.606255, 87.250824
  134.519, 113.536797, 86.270226
  136.205, 113.467674, 85.319687
  137.911, 113.396408, 84.415970
  139.639, 113.320465, 83.536705
  141.389, 113.241356, 82.686562
  143.161, 113.163948, 81.884758
  144.954, 113.092201, 81.086334
  146.771, 113.026794, 80.275063
  148.610, 112.965851, 79.458260
  150.472, 112.910164, 78.657433
  152.357, 112.863281, 77.861908
  154.266, 112.829430, 77.070755
  156.199, 112.809280, 76.222252
  158.156, 112.799194, 75.292694
  160.138, 112.792908, 74.297417
  162.145, 112.783951, 73.223885
  164.176, 112.769714, 72.068352
  166.234, 112.751015, 70.886703
  168.316, 112.727341, 69.672318
  170.426, 112.697487, 68.403625
  172.561, 112.659607, 67.089737
  174.723, 112.614853, 65.760620
  176.912, 112.564552, 64.447472
  179.129, 112.509697, 63.132690
  181.374, 112.451279, 61.827324
  183.646, 112.390663, 60.526836
  185.947, 112.329391, 59.235241
  188.277, 112.267876, 57.949314
  190.636, 112.205956, 56.665260
  193.025, 112.143997, 55.383892
  195.444, 112.082405, 54.106289
  197.893, 112.021774, 52.824402
  200.372, 111.962143, 51.543957
  202.883, 111.903831, 50.250565
  205.425, 111.846603, 48.947884
  207.999, 111.789673, 47.635124
  210.605, 111.733368, 46.322853
  213.244, 111.677444, 45.006374
  215.916, 111.622002, 43.672218
  218.622, 111.567520, 42.325554
  221.361, 111.514778, 40.969650
  224.135, 111.463699, 39.598694
  226.943, 111.413254, 38.206322
  229.787, 111.362953, 36.791077
  232.666, 111.312958, 35.367805
  235.581, 111.263741, 33.929119
  238.533, 111.215271, 32.476173
  241.522, 111.167213, 31.005362
  244.548, 111.118988, 29.503702
  247.613, 111.070023, 28.001690
  250.715, 111.020584, 26.482737
  253.857, 110.970978, 24.946901
  257.037, 110.922348, 23.386665
  260.258, 110.875000, 21.822336
  263.519, 110.828201, 20.246092
  266.821, 110.781418, 18.649931
  270.164, 110.734970, 17.039728
  273.550, 110.689156, 15.402285
  276.977, 110.643890, 13.745282
  280.448, 110.599525, 12.084999
  283.962, 110.555435, 10.391987
  287.520, 110.512604, 8.680614
  291.122, 110.470192, 6.943670
  294.770, 110.428627, 5.206506
  298.464, 110.387604, 3.430658
  302.204, 110.347198, 1.636941
  305.990, 110.307228, -0.174562
  309.824, 110.268105, -2.009534
  313.706, 110.230141, -3.865077
  317.637, 110.193520, -5.741276
  321.617, 110.156563, -7.648238
  325.647, 110.119919, -9.564953
  329.727, 110.083244, -11.511611
  333.859, 110.047905, -13.486875
  338.042, 110.012428, -15.495060
  342.278, 109.978088, -17.507452
  346.567, 109.944267, -19.564104
  350.909, 109.910553, -21.637640
  355.306, 109.876862, -23.748579
  359.758, 109.843834, -25.866402
  364.266, 109.812317, -28.030344
  368.830, 109.781403, -30.206604
  373.452, 109.750626, -32.428432
  378.131, 109.719986, -34.668385
  382.869, 109.690865, -36.950592
  387.666, 109.663628, -39.243683
  392.524, 109.636543, -41.574879
  397.442, 109.610550, -43.928070
  402.422, 109.585106, -46.317245
  407.465, 109.560043, -48.721909
  412.570, 109.535667, -51.166050
  417.740, 109.512642, -53.640793
  422.974, 109.491570, -56.163399
  428.274, 109.469635, -58.705402
  433.640, 109.447021, -61.289486
  439.074, 109.424217, -63.889549
  444.575, 109.402420, -66.459801
  450.146, 109.381653, -69.138298
  455.786, 109.361198, -71.830101
  461.497, 109.340515, -74.556610
  467.280, 109.321053, -77.308952
  473.135, 109.302216, -80.089737
  479.063, 109.284943, -82.934624
  485.066, 109.269028, -85.796501
  491.144, 109.253845, -88.678596
  497.298, 109.238647, -91.621010
  503.529, 109.223816, -94.632881
  509.839, 109.209755, -97.723129
  516.227, 109.196274, -100.738663
  522.695, 109.182442, -103.900497
  529.245, 109.168312, -107.055161
  535.876, 109.153488, -110.205299
  542.591, 109.140175, -113.482483
  549.389, 109.128120, -116.692406
  556.273, 109.117737, -120.044769
  563.243, 109.108017, -123.398888
  570.301, 109.098671, -126.800972
  577.447, 109.090202, -130.206345
  584.682, 109.083176, -133.685593
  592.008, 109.077599, -137.286240
  599.426, 109.073189, -140.817062
  606.937, 109.069260, -144.426468
  614.542, 109.065948, -148.159363
  622.242, 109.063217, -151.898254
  630.039, 109.062035, -155.711029
  637.934, 109.062309, -159.511902
  645.927, 109.064575, -163.430084
  654.021, 109.068077, -167.366882
  662.215, 109.072380, -171.346649
  670.513, 109.077332, -175.399567
  678.915, 109.082405, -179.444962
  687.422, 109.088448, 176.433548
  696.035, 109.096222, 172.276642
  704.756, 109.105682, 168.087067
  713.587, 109.117432, 163.852722
  722.528, 109.130104, 159.502502
  731.582, 109.144051, 155.157074
  740.748, 109.158623, 150.799469
  750.030, 109.174530, 146.289581
  759.428, 109.192657, 141.776779
  768.944, 109.212791, 137.183838
  778.579, 109.235626, 132.566238
  788.334, 109.261063, 127.817734
  798.212, 109.289513, 123.062241
  808.214, 109.320976, 118.203896
  818.341, 109.355003, 113.321564
  828.595, 109.393997, 108.447105
  838.977, 109.437141, 103.431610
  849.489, 109.484268, 98.285416
  860.134, 109.534462, 93.145569
  870.911, 109.587021, 87.937576
  881.824, 109.641411, 82.711113
  892.873, 109.699066, 77.351433
  904.061, 109.760735, 71.999245
  915.389, 109.826271, 66.495094
  926.859, 109.894669, 60.898987
  938.472, 109.967041, 55.175179
  950.231, 110.043533, 49.354057
  962.138, 110.125610, 43.533203
  974.194, 110.213135, 37.556297
  986.400, 110.304489, 31.570208
  998.760, 110.400574, 25.362494
 1011.274, 110.500061, 19.098063
 1023.946, 110.603790, 12.680691
 1036.776, 110.711273, 6.238237
 1049.767, 110.821236, -0.361528
 1062.921, 110.933571, -7.075004
 1076.239, 111.047905, -13.863446
 1089.724, 111.163498, -20.746418
 1103.379, 111.281204, -27.804682
 1117.204, 111.400208, -34.889721
 1131.203, 111.519234, -42.135513
 1145.377, 111.636894, -49.444855
 1159.728, 111.755562, -56.960735
 1174.260, 111.875832, -64.571152
 1188.974, 111.997147, -72.353523
 1203.871, 112.117836, -80.286110
 1218.956, 112.237106, -88.238579
 1234.230, 112.355690, -96.354156
 1249.695, 112.473801, -104.577484
 1265.353, 112.592041, -112.934578
 1281.208, 112.710556, -121.455643
 1297.262, 112.828506, -130.069016
 1313.517, 112.944565, -138.812515
 1329.975, 113.059235, -147.647995
 1346.640, 113.173416, -156.568283
 1363.513, 113.287933, -165.631058
 1380.598, 113.402786, -174.713791
 1397.897, 113.518913, 176.005569
 1415.413, 113.635323, 166.636948
 1433.148, 113.752220, 157.143204
 1451.106, 113.869400, 147.470337
 1469.288, 113.988426, 137.730713
 1487.699, 114.109413, 127.848244
 1506.340, 114.232483, 117.797379
 1525.214, 114.357719, 107.600609
 1544.325, 114.485443, 97.264519
 1563.676, 114.614334, 86.842850
 1583.269, 114.745499, 76.184586
 1603.107, 114.879013, 65.440971
 1623.194, 115.016174, 54.518787
 1643.533, 115.154732, 43.431149
 1664.127, 115.294228, 32.175655
 1684.978, 115.432785, 20.822241
 1706.091, 115.571022, 9.212884
 1727.469, 115.707535, -2.555586
 1749.114, 115.839874, -14.423941
 1771.031, 115.966415, -26.437424
 1793.222, 116.086060, -38.649258
 1815.691, 116.200020, -50.908409
 1838.442, 116.313187, -63.434975
 1861.477, 116.429092, -76.009186
 1884.802, 116.551346, -88.718040
 1908.419, 116.681839, -101.559120
 1932.331, 116.823738, -114.696144
 1956.543, 116.977043, -127.911415
 1981.059, 117.143280, -141.291595
 2005.882, 117.321709, -154.918747
 2031.016, 117.508514, -168.760757
 2056.465, 117.700272, 177.177139
 2082.232, 117.893028, 162.735062
 2108.323, 118.083641, 148.209167
 2134.740, 118.271065, 133.296738
 2161.489, 118.453247, 118.097755
 2188.572, 118.629982, 102.769279
 2215.995, 118.802170, 87.159401
 2243.762, 118.970833, 71.271614
 2271.876, 119.135803, 55.175980
 2300.343, 119.296814, 38.874340
 2329.167, 119.453125, 22.206707
 2358.351, 119.603188, 5.252321
 2387.902, 119.745316, -11.830802
 2417.822, 119.878273, -29.268768
 2448.118, 119.999687, -46.906612
 2478.793, 120.108154, -64.903885
 2509.852, 120.201889, -83.175682
 2541.301, 120.279854, -101.562553
 2573.144, 120.342010, -120.280769
 2605.385, 120.387909, -139.323441
 2638.031, 120.417084, -158.613434
 2671.086, 120.428329, -178.060349
 2704.555, 120.418861, 162.266968
 2738.443, 120.384666, 142.331985
 2772.756, 120.323059, 122.285225
 2807.499, 120.236008, 102.098579
 2842.677, 120.128471, 81.917389
 2878.296, 120.006599, 61.574902
 2914.361, 119.875549, 41.079086
 2950.878, 119.739693, 20.571251
 2987.853, 119.604958, -0.091110
 3025.291, 119.479050, -20.852701
 3063.198, 119.371254, -41.784225
 3101.580, 119.287430, -62.901199
 3140.443, 119.227249, -84.167892
 3179.793, 119.184860, -105.736435
 3219.636, 119.153793, -127.499283
 3259.979, 119.130486, -149.677399
 3300.826, 119.115181, -172.204346
 3342.186, 119.108810, 164.897156
 3384.064, 119.112701, 141.584030
 3426.467, 119.126160, 117.829834
 3469.400, 119.142807, 93.397202
 3512.872, 119.139946, 68.271286
 3556.889, 119.082527, 42.772495
 3601.457, 118.951607, 17.411840
 3646.583, 118.755409, -7.653970
 3692.275, 118.519150, -32.833652
 3738.540, 118.265831, -58.161308
